Dataset Survey:15(A_Miguel_02_07_14)
Dwell Time (s)	0.100000
Number of sweeps	3
Kinetic Energy(eV)	Binding Energy(eV)	Intensity(cps)	Transmission Value
286.690000	1200.000000	4230.000000	4.130761
287.690000	1199.000000	4123.333333	4.133023
288.690000	1198.000000	4216.666667	4.135284
289.690000	1197.000000	4180.000000	4.137546
290.690000	1196.000000	4313.333333	4.139807
291.690000	1195.000000	4250.000000	4.142069
292.690000	1194.000000	4130.000000	4.144330
293.690000	1193.000000	4140.000000	4.146592
294.690000	1192.000000	4153.333333	4.148853
295.690000	1191.000000	4216.666667	4.151115
296.690000	1190.000000	4200.000000	4.153376
297.690000	1189.000000	4316.666667	4.155638
298.690000	1188.000000	4136.666667	4.157899
299.690000	1187.000000	4136.666667	4.160161
300.690000	1186.000000	4246.666667	4.162422
301.690000	1185.000000	4253.333333	4.164684
302.690000	1184.000000	4130.000000	4.166945
303.690000	1183.000000	4093.333333	4.169207
304.690000	1182.000000	4120.000000	4.171468
305.690000	1181.000000	4286.666667	4.173730
306.690000	1180.000000	4320.000000	4.175991
307.690000	1179.000000	4256.666667	4.178253
308.690000	1178.000000	4343.333333	4.180514
309.690000	1177.000000	4153.333333	4.182776
310.690000	1176.000000	4270.000000	4.184623
311.690000	1175.000000	4126.666667	4.186353
312.690000	1174.000000	4370.000000	4.188083
313.690000	1173.000000	4336.666667	4.189813
314.690000	1172.000000	4560.000000	4.191543
315.690000	1171.000000	4266.666667	4.193273
316.690000	1170.000000	4340.000000	4.195003
317.690000	1169.000000	4196.666667	4.196733
318.690000	1168.000000	4370.000000	4.198463
319.690000	1167.000000	4456.666667	4.200193
320.690000	1166.000000	4543.333333	4.201923
321.690000	1165.000000	4430.000000	4.203653
322.690000	1164.000000	4350.000000	4.205383
323.690000	1163.000000	4206.666667	4.207113
324.690000	1162.000000	4406.666667	4.208843
325.690000	1161.000000	4350.000000	4.210573
326.690000	1160.000000	4466.666667	4.212303
327.690000	1159.000000	4390.000000	4.214033
328.690000	1158.000000	4233.333333	4.215764
329.690000	1157.000000	4220.000000	4.217494
330.690000	1156.000000	4686.666667	4.219224
331.690000	1155.000000	4560.000000	4.220954
332.690000	1154.000000	4676.666667	4.222684
333.690000	1153.000000	4313.333333	4.224414
334.690000	1152.000000	4360.000000	4.226144
335.690000	1151.000000	4406.666667	4.227874
336.690000	1150.000000	4440.000000	4.229604
337.690000	1149.000000	4520.000000	4.231334
338.690000	1148.000000	4383.333333	4.233064
339.690000	1147.000000	4440.000000	4.234794
340.690000	1146.000000	4333.333333	4.236524
341.690000	1145.000000	4373.333333	4.238254
342.690000	1144.000000	4573.333333	4.239984
343.690000	1143.000000	4616.666667	4.241714
344.690000	1142.000000	4290.000000	4.243444
345.690000	1141.000000	4546.666667	4.245174
346.690000	1140.000000	4610.000000	4.246904
347.690000	1139.000000	4586.666667	4.248634
348.690000	1138.000000	4356.666667	4.250364
349.690000	1137.000000	4820.000000	4.252094
350.690000	1136.000000	4693.333333	4.253824
351.690000	1135.000000	4440.000000	4.255554
352.690000	1134.000000	4590.000000	4.257284
353.690000	1133.000000	4216.666667	4.259014
354.690000	1132.000000	4636.666667	4.260744
355.690000	1131.000000	4613.333333	4.262475
356.690000	1130.000000	4540.000000	4.264205
357.690000	1129.000000	4330.000000	4.265935
358.690000	1128.000000	4580.000000	4.267665
359.690000	1127.000000	4600.000000	4.269395
360.690000	1126.000000	4603.333333	4.270155
361.690000	1125.000000	4596.666667	4.270642
362.690000	1124.000000	4476.666667	4.271129
363.690000	1123.000000	4616.666667	4.271616
364.690000	1122.000000	4603.333333	4.272103
365.690000	1121.000000	4593.333333	4.272590
366.690000	1120.000000	4620.000000	4.273077
367.690000	1119.000000	4573.333333	4.273564
368.690000	1118.000000	4590.000000	4.274051
369.690000	1117.000000	4683.333333	4.274538
370.690000	1116.000000	4763.333333	4.275024
371.690000	1115.000000	4676.666667	4.275511
372.690000	1114.000000	4446.666667	4.275998
373.690000	1113.000000	4580.000000	4.276485
374.690000	1112.000000	4660.000000	4.276972
375.690000	1111.000000	4693.333333	4.277459
376.690000	1110.000000	4630.000000	4.277946
377.690000	1109.000000	4746.666667	4.278433
378.690000	1108.000000	4803.333333	4.278920
379.690000	1107.000000	4646.666667	4.279407
380.690000	1106.000000	4690.000000	4.279894
381.690000	1105.000000	4893.333333	4.280381
382.690000	1104.000000	4780.000000	4.280868
383.690000	1103.000000	4806.666667	4.281355
384.690000	1102.000000	4696.666667	4.281842
385.690000	1101.000000	4773.333333	4.282329
386.690000	1100.000000	4716.666667	4.282815
387.690000	1099.000000	4693.333333	4.283302
388.690000	1098.000000	4576.666667	4.283789
389.690000	1097.000000	4630.000000	4.284276
390.690000	1096.000000	4710.000000	4.284763
391.690000	1095.000000	4613.333333	4.285250
392.690000	1094.000000	4650.000000	4.285737
393.690000	1093.000000	4583.333333	4.286224
394.690000	1092.000000	4560.000000	4.286711
395.690000	1091.000000	4723.333333	4.287198
396.690000	1090.000000	4523.333333	4.287685
397.690000	1089.000000	4676.666667	4.288172
398.690000	1088.000000	4746.666667	4.288659
399.690000	1087.000000	4903.333333	4.289146
400.690000	1086.000000	4696.666667	4.289633
401.690000	1085.000000	4666.666667	4.290119
402.690000	1084.000000	4426.666667	4.290606
403.690000	1083.000000	4646.666667	4.291093
404.690000	1082.000000	4670.000000	4.291580
405.690000	1081.000000	4940.000000	4.292067
406.690000	1080.000000	4806.666667	4.292554
407.690000	1079.000000	4643.333333	4.293041
408.690000	1078.000000	4633.333333	4.293528
409.690000	1077.000000	4756.666667	4.294015
410.690000	1076.000000	4646.666667	4.294947
411.690000	1075.000000	4746.666667	4.296005
412.690000	1074.000000	5003.333333	4.297063
413.690000	1073.000000	5036.666667	4.298120
414.690000	1072.000000	5040.000000	4.299178
415.690000	1071.000000	5173.333333	4.300236
416.690000	1070.000000	4863.333333	4.301294
417.690000	1069.000000	4726.666667	4.302351
418.690000	1068.000000	4770.000000	4.303409
419.690000	1067.000000	4723.333333	4.304467
420.690000	1066.000000	4650.000000	4.305525
421.690000	1065.000000	4666.666667	4.306582
422.690000	1064.000000	4573.333333	4.307640
423.690000	1063.000000	4843.333333	4.308698
424.690000	1062.000000	4626.666667	4.309755
425.690000	1061.000000	4586.666667	4.310813
426.690000	1060.000000	4910.000000	4.311871
427.690000	1059.000000	4743.333333	4.312929
428.690000	1058.000000	4740.000000	4.313986
429.690000	1057.000000	4713.333333	4.315044
430.690000	1056.000000	4800.000000	4.316102
431.690000	1055.000000	4760.000000	4.317160
432.690000	1054.000000	4903.333333	4.318217
433.690000	1053.000000	4743.333333	4.319275
434.690000	1052.000000	4760.000000	4.320333
435.690000	1051.000000	4753.333333	4.321391
436.690000	1050.000000	4750.000000	4.322448
437.690000	1049.000000	4816.666667	4.323506
438.690000	1048.000000	4806.666667	4.324564
439.690000	1047.000000	4993.333333	4.325621
440.690000	1046.000000	4796.666667	4.326679
441.690000	1045.000000	4810.000000	4.327737
442.690000	1044.000000	4870.000000	4.328795
443.690000	1043.000000	4840.000000	4.329852
444.690000	1042.000000	4880.000000	4.330910
445.690000	1041.000000	4880.000000	4.331968
446.690000	1040.000000	4706.666667	4.333026
447.690000	1039.000000	4750.000000	4.334083
448.690000	1038.000000	4883.333333	4.335141
449.690000	1037.000000	4810.000000	4.336199
450.690000	1036.000000	4833.333333	4.337257
451.690000	1035.000000	4803.333333	4.338314
452.690000	1034.000000	4903.333333	4.339372
453.690000	1033.000000	4970.000000	4.340430
454.690000	1032.000000	4966.666667	4.341488
455.690000	1031.000000	4943.333333	4.342545
456.690000	1030.000000	4836.666667	4.343603
457.690000	1029.000000	4823.333333	4.344661
458.690000	1028.000000	4923.333333	4.345718
459.690000	1027.000000	5120.000000	4.346776
460.690000	1026.000000	4930.000000	4.347346
461.690000	1025.000000	4963.333333	4.347777
462.690000	1024.000000	5120.000000	4.348209
463.690000	1023.000000	5186.666667	4.348640
464.690000	1022.000000	5070.000000	4.349072
465.690000	1021.000000	4996.666667	4.349503
466.690000	1020.000000	5043.333333	4.349935
467.690000	1019.000000	4946.666667	4.350367
468.690000	1018.000000	5043.333333	4.350798
469.690000	1017.000000	5086.666667	4.351230
470.690000	1016.000000	5106.666667	4.351661
471.690000	1015.000000	5013.333333	4.352093
472.690000	1014.000000	5090.000000	4.352525
473.690000	1013.000000	4993.333333	4.352956
474.690000	1012.000000	4960.000000	4.353388
475.690000	1011.000000	4970.000000	4.353819
476.690000	1010.000000	5003.333333	4.354251
477.690000	1009.000000	5003.333333	4.354682
478.690000	1008.000000	4990.000000	4.355114
479.690000	1007.000000	5233.333333	4.355546
480.690000	1006.000000	5310.000000	4.355977
481.690000	1005.000000	5393.333333	4.356409
482.690000	1004.000000	5290.000000	4.356840
483.690000	1003.000000	5216.666667	4.357272
484.690000	1002.000000	5296.666667	4.357704
485.690000	1001.000000	5230.000000	4.358135
486.690000	1000.000000	5200.000000	4.358567
487.690000	999.000000	5103.333333	4.358998
488.690000	998.000000	5433.333333	4.359430
489.690000	997.000000	5166.666667	4.359861
490.690000	996.000000	5310.000000	4.360293
491.690000	995.000000	5353.333333	4.360725
492.690000	994.000000	5140.000000	4.361156
493.690000	993.000000	5240.000000	4.361588
494.690000	992.000000	5343.333333	4.362019
495.690000	991.000000	5283.333333	4.362451
496.690000	990.000000	5220.000000	4.362883
497.690000	989.000000	5163.333333	4.363314
498.690000	988.000000	5190.000000	4.363746
499.690000	987.000000	5063.333333	4.364177
500.690000	986.000000	5033.333333	4.364609
501.690000	985.000000	5076.666667	4.365040
502.690000	984.000000	5246.666667	4.365472
503.690000	983.000000	5183.333333	4.365904
504.690000	982.000000	5043.333333	4.366335
505.690000	981.000000	5353.333333	4.366767
506.690000	980.000000	5396.666667	4.367198
507.690000	979.000000	5430.000000	4.367630
508.690000	978.000000	5453.333333	4.368062
509.690000	977.000000	5456.666667	4.368493
510.690000	976.000000	5446.666667	4.368943
511.690000	975.000000	5393.333333	4.369399
512.690000	974.000000	5610.000000	4.369855
513.690000	973.000000	5300.000000	4.370310
514.690000	972.000000	5373.333333	4.370766
515.690000	971.000000	5366.666667	4.371222
516.690000	970.000000	5280.000000	4.371677
517.690000	969.000000	4976.666667	4.372133
518.690000	968.000000	4976.666667	4.372589
519.690000	967.000000	4996.666667	4.373044
520.690000	966.000000	4990.000000	4.373500
521.690000	965.000000	4996.666667	4.373955
522.690000	964.000000	4933.333333	4.374411
523.690000	963.000000	4623.333333	4.374867
524.690000	962.000000	4643.333333	4.375322
525.690000	961.000000	4663.333333	4.375778
526.690000	960.000000	4640.000000	4.376234
527.690000	959.000000	4616.666667	4.376689
528.690000	958.000000	4480.000000	4.377145
529.690000	957.000000	4680.000000	4.377600
530.690000	956.000000	4790.000000	4.378056
531.690000	955.000000	4653.333333	4.378512
532.690000	954.000000	4750.000000	4.378967
533.690000	953.000000	4813.333333	4.379423
534.690000	952.000000	4946.666667	4.379879
535.690000	951.000000	4776.666667	4.380334
536.690000	950.000000	4730.000000	4.380790
537.690000	949.000000	4593.333333	4.381246
538.690000	948.000000	4833.333333	4.381701
539.690000	947.000000	4733.333333	4.382157
540.690000	946.000000	4700.000000	4.382612
541.690000	945.000000	4823.333333	4.383068
542.690000	944.000000	4793.333333	4.383524
543.690000	943.000000	4870.000000	4.383979
544.690000	942.000000	4903.333333	4.384435
545.690000	941.000000	4963.333333	4.384891
546.690000	940.000000	4800.000000	4.385346
547.690000	939.000000	4703.333333	4.385802
548.690000	938.000000	4846.666667	4.386257
549.690000	937.000000	4703.333333	4.386713
550.690000	936.000000	4706.666667	4.387169
551.690000	935.000000	4763.333333	4.387624
552.690000	934.000000	4683.333333	4.388080
553.690000	933.000000	4806.666667	4.388536
554.690000	932.000000	4773.333333	4.388991
555.690000	931.000000	4776.666667	4.389447
556.690000	930.000000	4793.333333	4.389903
557.690000	929.000000	4933.333333	4.390358
558.690000	928.000000	4756.666667	4.390814
559.690000	927.000000	5023.333333	4.391269
560.690000	926.000000	4820.000000	4.390903
561.690000	925.000000	4893.333333	4.390306
562.690000	924.000000	4926.666667	4.389708
563.690000	923.000000	4816.666667	4.389110
564.690000	922.000000	4843.333333	4.388513
565.690000	921.000000	4773.333333	4.387915
566.690000	920.000000	4896.666667	4.387317
567.690000	919.000000	4803.333333	4.386719
568.690000	918.000000	4843.333333	4.386122
569.690000	917.000000	4950.000000	4.385524
570.690000	916.000000	5060.000000	4.384926
571.690000	915.000000	4763.333333	4.384329
572.690000	914.000000	4746.666667	4.383731
573.690000	913.000000	4860.000000	4.383133
574.690000	912.000000	4803.333333	4.382535
575.690000	911.000000	4826.666667	4.381938
576.690000	910.000000	5186.666667	4.381340
577.690000	909.000000	4966.666667	4.380742
578.690000	908.000000	5023.333333	4.380145
579.690000	907.000000	4920.000000	4.379547
580.690000	906.000000	4746.666667	4.378949
581.690000	905.000000	4966.666667	4.378351
582.690000	904.000000	5143.333333	4.377754
583.690000	903.000000	4993.333333	4.377156
584.690000	902.000000	5066.666667	4.376558
585.690000	901.000000	4876.666667	4.375961
586.690000	900.000000	4900.000000	4.375363
587.690000	899.000000	5056.666667	4.374765
588.690000	898.000000	5046.666667	4.374168
589.690000	897.000000	5113.333333	4.373570
590.690000	896.000000	5193.333333	4.372972
591.690000	895.000000	4903.333333	4.372374
592.690000	894.000000	4930.000000	4.371777
593.690000	893.000000	4920.000000	4.371179
594.690000	892.000000	5173.333333	4.370581
595.690000	891.000000	5160.000000	4.369984
596.690000	890.000000	4996.666667	4.369386
597.690000	889.000000	4883.333333	4.368788
598.690000	888.000000	5196.666667	4.368190
599.690000	887.000000	4836.666667	4.367593
600.690000	886.000000	5046.666667	4.366995
601.690000	885.000000	5020.000000	4.366397
602.690000	884.000000	4823.333333	4.365800
603.690000	883.000000	5090.000000	4.365202
604.690000	882.000000	5100.000000	4.364604
605.690000	881.000000	4933.333333	4.364006
606.690000	880.000000	5050.000000	4.363409
607.690000	879.000000	5010.000000	4.362811
608.690000	878.000000	5050.000000	4.362213
609.690000	877.000000	5073.333333	4.361616
610.690000	876.000000	5153.333333	4.361410
611.690000	875.000000	5236.666667	4.361315
612.690000	874.000000	5033.333333	4.361220
613.690000	873.000000	5170.000000	4.361125
614.690000	872.000000	5013.333333	4.361030
615.690000	871.000000	5096.666667	4.360935
616.690000	870.000000	5070.000000	4.360839
617.690000	869.000000	5143.333333	4.360744
618.690000	868.000000	5206.666667	4.360649
619.690000	867.000000	5220.000000	4.360554
620.690000	866.000000	5006.666667	4.360459
621.690000	865.000000	4973.333333	4.360364
622.690000	864.000000	5113.333333	4.360269
623.690000	863.000000	5216.666667	4.360174
624.690000	862.000000	5260.000000	4.360079
625.690000	861.000000	5230.000000	4.359984
626.690000	860.000000	5120.000000	4.359889
627.690000	859.000000	5106.666667	4.359794
628.690000	858.000000	5273.333333	4.359699
629.690000	857.000000	5403.333333	4.359604
630.690000	856.000000	5116.666667	4.359508
631.690000	855.000000	5086.666667	4.359413
632.690000	854.000000	5130.000000	4.359318
633.690000	853.000000	5346.666667	4.359223
634.690000	852.000000	5303.333333	4.359128
635.690000	851.000000	5256.666667	4.359033
636.690000	850.000000	5043.333333	4.358938
637.690000	849.000000	5070.000000	4.358843
638.690000	848.000000	5153.333333	4.358748
639.690000	847.000000	5306.666667	4.358653
640.690000	846.000000	5363.333333	4.358558
641.690000	845.000000	5180.000000	4.358463
642.690000	844.000000	5183.333333	4.358368
643.690000	843.000000	5250.000000	4.358272
644.690000	842.000000	5003.333333	4.358177
645.690000	841.000000	5370.000000	4.358082
646.690000	840.000000	5246.666667	4.357987
647.690000	839.000000	5366.666667	4.357892
648.690000	838.000000	5380.000000	4.357797
649.690000	837.000000	5276.666667	4.357702
650.690000	836.000000	5256.666667	4.357607
651.690000	835.000000	5303.333333	4.357512
652.690000	834.000000	5380.000000	4.357417
653.690000	833.000000	5230.000000	4.357322
654.690000	832.000000	5290.000000	4.357227
655.690000	831.000000	5426.666667	4.357132
656.690000	830.000000	5306.666667	4.357037
657.690000	829.000000	5260.000000	4.356941
658.690000	828.000000	5433.333333	4.356846
659.690000	827.000000	5353.333333	4.356751
660.690000	826.000000	5223.333333	4.356155
661.690000	825.000000	5250.000000	4.355417
662.690000	824.000000	5180.000000	4.354679
663.690000	823.000000	5293.333333	4.353941
664.690000	822.000000	5476.666667	4.353203
665.690000	821.000000	5476.666667	4.352465
666.690000	820.000000	5353.333333	4.351727
667.690000	819.000000	5186.666667	4.350989
668.690000	818.000000	5200.000000	4.350252
669.690000	817.000000	5263.333333	4.349514
670.690000	816.000000	5600.000000	4.348776
671.690000	815.000000	5543.333333	4.348038
672.690000	814.000000	5466.666667	4.347300
673.690000	813.000000	5463.333333	4.346562
674.690000	812.000000	5333.333333	4.345824
675.690000	811.000000	5423.333333	4.345086
676.690000	810.000000	5176.666667	4.344348
677.690000	809.000000	5146.666667	4.343610
678.690000	808.000000	5300.000000	4.342872
679.690000	807.000000	5410.000000	4.342134
680.690000	806.000000	5290.000000	4.341397
681.690000	805.000000	5380.000000	4.340659
682.690000	804.000000	5393.333333	4.339921
683.690000	803.000000	5320.000000	4.339183
684.690000	802.000000	5320.000000	4.338445
685.690000	801.000000	5356.666667	4.337707
686.690000	800.000000	5463.333333	4.336969
687.690000	799.000000	5290.000000	4.336231
688.690000	798.000000	5360.000000	4.335493
689.690000	797.000000	5500.000000	4.334755
690.690000	796.000000	5470.000000	4.334017
691.690000	795.000000	5240.000000	4.333280
692.690000	794.000000	5363.333333	4.332542
693.690000	793.000000	5346.666667	4.331804
694.690000	792.000000	5476.666667	4.331066
695.690000	791.000000	5380.000000	4.330328
696.690000	790.000000	5493.333333	4.329590
697.690000	789.000000	5483.333333	4.328852
698.690000	788.000000	5486.666667	4.328114
699.690000	787.000000	5496.666667	4.327376
700.690000	786.000000	5350.000000	4.327530
701.690000	785.000000	5276.666667	4.327935
702.690000	784.000000	5413.333333	4.328341
703.690000	783.000000	5410.000000	4.328746
704.690000	782.000000	5453.333333	4.329151
705.690000	781.000000	5246.666667	4.329556
706.690000	780.000000	5670.000000	4.329962
707.690000	779.000000	5470.000000	4.330367
708.690000	778.000000	5396.666667	4.330772
709.690000	777.000000	5546.666667	4.331178
710.690000	776.000000	5503.333333	4.331583
711.690000	775.000000	5446.666667	4.331988
712.690000	774.000000	5420.000000	4.332393
713.690000	773.000000	5493.333333	4.332799
714.690000	772.000000	5870.000000	4.333204
715.690000	771.000000	5733.333333	4.333609
716.690000	770.000000	5630.000000	4.334015
717.690000	769.000000	5623.333333	4.334420
718.690000	768.000000	5556.666667	4.334825
719.690000	767.000000	5553.333333	4.335231
720.690000	766.000000	5530.000000	4.335636
721.690000	765.000000	5476.666667	4.336041
722.690000	764.000000	5630.000000	4.336446
723.690000	763.000000	5390.000000	4.336852
724.690000	762.000000	5456.666667	4.337257
725.690000	761.000000	5493.333333	4.337662
726.690000	760.000000	5686.666667	4.338068
727.690000	759.000000	5876.666667	4.338473
728.690000	758.000000	5850.000000	4.338878
729.690000	757.000000	5523.333333	4.339283
730.690000	756.000000	5770.000000	4.339689
731.690000	755.000000	5630.000000	4.340094
732.690000	754.000000	5560.000000	4.340499
733.690000	753.000000	5586.666667	4.340905
734.690000	752.000000	5516.666667	4.341310
735.690000	751.000000	5646.666667	4.341715
736.690000	750.000000	5586.666667	4.342120
737.690000	749.000000	5626.666667	4.342526
738.690000	748.000000	5546.666667	4.342931
739.690000	747.000000	5573.333333	4.343336
740.690000	746.000000	5753.333333	4.343742
741.690000	745.000000	5630.000000	4.344147
742.690000	744.000000	5523.333333	4.344552
743.690000	743.000000	5443.333333	4.344957
744.690000	742.000000	5786.666667	4.345363
745.690000	741.000000	5640.000000	4.345768
746.690000	740.000000	5503.333333	4.346173
747.690000	739.000000	5563.333333	4.346579
748.690000	738.000000	5710.000000	4.346984
749.690000	737.000000	5680.000000	4.347389
750.690000	736.000000	5770.000000	4.347794
751.690000	735.000000	5623.333333	4.348200
752.690000	734.000000	5783.333333	4.348605
753.690000	733.000000	5743.333333	4.349010
754.690000	732.000000	5873.333333	4.349416
755.690000	731.000000	5816.666667	4.349821
756.690000	730.000000	5903.333333	4.350226
757.690000	729.000000	5706.666667	4.350632
758.690000	728.000000	5746.666667	4.351037
759.690000	727.000000	5673.333333	4.351442
760.690000	726.000000	5666.666667	4.351549
761.690000	725.000000	5816.666667	4.351571
762.690000	724.000000	5720.000000	4.351594
763.690000	723.000000	5690.000000	4.351616
764.690000	722.000000	5660.000000	4.351639
765.690000	721.000000	5656.666667	4.351662
766.690000	720.000000	5670.000000	4.351684
767.690000	719.000000	5796.666667	4.351707
768.690000	718.000000	5726.666667	4.351729
769.690000	717.000000	5796.666667	4.351752
770.690000	716.000000	5720.000000	4.351774
771.690000	715.000000	5703.333333	4.351797
772.690000	714.000000	5936.666667	4.351819
773.690000	713.000000	5686.666667	4.351842
774.690000	712.000000	5790.000000	4.351864
775.690000	711.000000	5813.333333	4.351887
776.690000	710.000000	5796.666667	4.351910
777.690000	709.000000	5863.333333	4.351932
778.690000	708.000000	5926.666667	4.351955
779.690000	707.000000	5750.000000	4.351977
780.690000	706.000000	5820.000000	4.352000
781.690000	705.000000	5743.333333	4.352022
782.690000	704.000000	5856.666667	4.352045
783.690000	703.000000	5923.333333	4.352067
784.690000	702.000000	5856.666667	4.352090
785.690000	701.000000	5883.333333	4.352112
786.690000	700.000000	5866.666667	4.352135
787.690000	699.000000	5973.333333	4.352158
788.690000	698.000000	5610.000000	4.352180
789.690000	697.000000	5803.333333	4.352203
790.690000	696.000000	5800.000000	4.352225
791.690000	695.000000	5736.666667	4.352248
792.690000	694.000000	5690.000000	4.352270
793.690000	693.000000	5773.333333	4.352293
794.690000	692.000000	5953.333333	4.352315
795.690000	691.000000	6083.333333	4.352338
796.690000	690.000000	6020.000000	4.352360
797.690000	689.000000	6383.333333	4.352383
798.690000	688.000000	6100.000000	4.352406
799.690000	687.000000	6013.333333	4.352428
800.690000	686.000000	6036.666667	4.352451
801.690000	685.000000	5970.000000	4.352473
802.690000	684.000000	5836.666667	4.352496
803.690000	683.000000	5900.000000	4.352518
804.690000	682.000000	5863.333333	4.352541
805.690000	681.000000	6133.333333	4.352563
806.690000	680.000000	5886.666667	4.352586
807.690000	679.000000	5946.666667	4.352608
808.690000	678.000000	6103.333333	4.352631
809.690000	677.000000	6056.666667	4.352653
810.690000	676.000000	5916.666667	4.352594
811.690000	675.000000	5913.333333	4.352512
812.690000	674.000000	6060.000000	4.352429
813.690000	673.000000	6030.000000	4.352347
814.690000	672.000000	5820.000000	4.352264
815.690000	671.000000	5800.000000	4.352182
816.690000	670.000000	5993.333333	4.352099
817.690000	669.000000	5856.666667	4.352017
818.690000	668.000000	5876.666667	4.351934
819.690000	667.000000	5960.000000	4.351852
820.690000	666.000000	5803.333333	4.351769
821.690000	665.000000	5836.666667	4.351687
822.690000	664.000000	5826.666667	4.351604
823.690000	663.000000	5993.333333	4.351522
824.690000	662.000000	5870.000000	4.351439
825.690000	661.000000	6093.333333	4.351357
826.690000	660.000000	5996.666667	4.351274
827.690000	659.000000	6120.000000	4.351192
828.690000	658.000000	5940.000000	4.351109
829.690000	657.000000	5806.666667	4.351027
830.690000	656.000000	5976.666667	4.350945
831.690000	655.000000	6070.000000	4.350862
832.690000	654.000000	5983.333333	4.350780
833.690000	653.000000	6393.333333	4.350697
834.690000	652.000000	6036.666667	4.350615
835.690000	651.000000	6146.666667	4.350532
836.690000	650.000000	6050.000000	4.350450
837.690000	649.000000	6400.000000	4.350367
838.690000	648.000000	6020.000000	4.350285
839.690000	647.000000	6170.000000	4.350202
840.690000	646.000000	6173.333333	4.350120
841.690000	645.000000	6216.666667	4.350037
842.690000	644.000000	6076.666667	4.349955
843.690000	643.000000	6296.666667	4.349872
844.690000	642.000000	6166.666667	4.349790
845.690000	641.000000	6206.666667	4.349707
846.690000	640.000000	6403.333333	4.349625
847.690000	639.000000	6356.666667	4.349542
848.690000	638.000000	6266.666667	4.349460
849.690000	637.000000	6146.666667	4.349377
850.690000	636.000000	6220.000000	4.349295
851.690000	635.000000	6130.000000	4.349212
852.690000	634.000000	6303.333333	4.349130
853.690000	633.000000	6116.666667	4.349047
854.690000	632.000000	6296.666667	4.348965
855.690000	631.000000	6173.333333	4.348883
856.690000	630.000000	5980.000000	4.348800
857.690000	629.000000	6146.666667	4.348718
858.690000	628.000000	6240.000000	4.348635
859.690000	627.000000	5963.333333	4.348553
860.690000	626.000000	5956.666667	4.348470
861.690000	625.000000	6093.333333	4.348388
862.690000	624.000000	6223.333333	4.348305
863.690000	623.000000	6396.666667	4.348223
864.690000	622.000000	6316.666667	4.348140
865.690000	621.000000	6136.666667	4.348058
866.690000	620.000000	6296.666667	4.347975
867.690000	619.000000	6146.666667	4.347893
868.690000	618.000000	6243.333333	4.347810
869.690000	617.000000	6116.666667	4.347728
870.690000	616.000000	6100.000000	4.348764
871.690000	615.000000	6306.666667	4.350116
872.690000	614.000000	6313.333333	4.351468
873.690000	613.000000	6473.333333	4.352820
874.690000	612.000000	6046.666667	4.354172
875.690000	611.000000	6146.666667	4.355524
876.690000	610.000000	6196.666667	4.356876
877.690000	609.000000	6353.333333	4.358228
878.690000	608.000000	6136.666667	4.359580
879.690000	607.000000	6193.333333	4.360932
880.690000	606.000000	6176.666667	4.362284
881.690000	605.000000	6443.333333	4.363636
882.690000	604.000000	6496.666667	4.364987
883.690000	603.000000	6270.000000	4.366339
884.690000	602.000000	6410.000000	4.367691
885.690000	601.000000	6326.666667	4.369043
886.690000	600.000000	6333.333333	4.370395
887.690000	599.000000	6223.333333	4.371747
888.690000	598.000000	6093.333333	4.373099
889.690000	597.000000	6293.333333	4.374451
890.690000	596.000000	6126.666667	4.375803
891.690000	595.000000	6513.333333	4.377155
892.690000	594.000000	6443.333333	4.378507
893.690000	593.000000	6310.000000	4.379859
894.690000	592.000000	6556.666667	4.381211
895.690000	591.000000	6260.000000	4.382563
896.690000	590.000000	6246.666667	4.383915
897.690000	589.000000	6053.333333	4.385267
898.690000	588.000000	6416.666667	4.386619
899.690000	587.000000	6426.666667	4.387971
900.690000	586.000000	6530.000000	4.389322
901.690000	585.000000	6430.000000	4.390674
902.690000	584.000000	6513.333333	4.392026
903.690000	583.000000	6423.333333	4.393378
904.690000	582.000000	6336.666667	4.394730
905.690000	581.000000	6223.333333	4.396082
906.690000	580.000000	6296.666667	4.397434
907.690000	579.000000	6256.666667	4.398786
908.690000	578.000000	6310.000000	4.400138
909.690000	577.000000	6490.000000	4.401490
910.690000	576.000000	6506.666667	4.401541
911.690000	575.000000	6683.333333	4.401225
912.690000	574.000000	6500.000000	4.400910
913.690000	573.000000	6553.333333	4.400594
914.690000	572.000000	6416.666667	4.400278
915.690000	571.000000	6623.333333	4.399963
916.690000	570.000000	6563.333333	4.399647
917.690000	569.000000	6470.000000	4.399331
918.690000	568.000000	6573.333333	4.399016
919.690000	567.000000	6523.333333	4.398700
920.690000	566.000000	6550.000000	4.398384
921.690000	565.000000	6716.666667	4.398069
922.690000	564.000000	6850.000000	4.397753
923.690000	563.000000	6736.666667	4.397437
924.690000	562.000000	6880.000000	4.397122
925.690000	561.000000	6480.000000	4.396806
926.690000	560.000000	6626.666667	4.396490
927.690000	559.000000	6650.000000	4.396175
928.690000	558.000000	6493.333333	4.395859
929.690000	557.000000	6603.333333	4.395543
930.690000	556.000000	6430.000000	4.395228
931.690000	555.000000	6403.333333	4.394912
932.690000	554.000000	6560.000000	4.394596
933.690000	553.000000	6426.666667	4.394280
934.690000	552.000000	6406.666667	4.393965
935.690000	551.000000	6613.333333	4.393649
936.690000	550.000000	6543.333333	4.393333
937.690000	549.000000	6326.666667	4.393018
938.690000	548.000000	6250.000000	4.392702
939.690000	547.000000	6460.000000	4.392386
940.690000	546.000000	6566.666667	4.392071
941.690000	545.000000	6433.333333	4.391755
942.690000	544.000000	6613.333333	4.391439
943.690000	543.000000	6316.666667	4.391124
944.690000	542.000000	6450.000000	4.390808
945.690000	541.000000	6290.000000	4.390492
946.690000	540.000000	6433.333333	4.390177
947.690000	539.000000	6320.000000	4.389861
948.690000	538.000000	6250.000000	4.389545
949.690000	537.000000	6613.333333	4.389230
950.690000	536.000000	6736.666667	4.388914
951.690000	535.000000	7553.333333	4.388598
952.690000	534.000000	8396.666667	4.388283
953.690000	533.000000	9063.333333	4.387967
954.690000	532.000000	9043.333333	4.387651
955.690000	531.000000	8143.333333	4.387336
956.690000	530.000000	7260.000000	4.387020
957.690000	529.000000	6450.000000	4.386704
958.690000	528.000000	5956.666667	4.386388
959.690000	527.000000	5836.666667	4.386073
960.690000	526.000000	5966.666667	4.385757
961.690000	525.000000	5926.666667	4.385441
962.690000	524.000000	5773.333333	4.385126
963.690000	523.000000	6053.333333	4.384810
964.690000	522.000000	6096.666667	4.384494
965.690000	521.000000	6090.000000	4.384179
966.690000	520.000000	6000.000000	4.383863
967.690000	519.000000	6226.666667	4.383547
968.690000	518.000000	6400.000000	4.383232
969.690000	517.000000	6116.666667	4.382916
970.690000	516.000000	5943.333333	4.382650
971.690000	515.000000	5753.333333	4.382398
972.690000	514.000000	6023.333333	4.382146
973.690000	513.000000	6100.000000	4.381894
974.690000	512.000000	6090.000000	4.381642
975.690000	511.000000	6013.333333	4.381390
976.690000	510.000000	6100.000000	4.381138
977.690000	509.000000	5906.666667	4.380886
978.690000	508.000000	6120.000000	4.380634
979.690000	507.000000	6026.666667	4.380381
980.690000	506.000000	6073.333333	4.380129
981.690000	505.000000	5996.666667	4.379877
982.690000	504.000000	6076.666667	4.379625
983.690000	503.000000	6236.666667	4.379373
984.690000	502.000000	6203.333333	4.379121
985.690000	501.000000	6293.333333	4.378869
986.690000	500.000000	6323.333333	4.378617
987.690000	499.000000	6226.666667	4.378365
988.690000	498.000000	6596.666667	4.378113
989.690000	497.000000	6496.666667	4.377861
990.690000	496.000000	6390.000000	4.377609
991.690000	495.000000	6256.666667	4.377357
992.690000	494.000000	6296.666667	4.377105
993.690000	493.000000	6250.000000	4.376853
994.690000	492.000000	6046.666667	4.376601
995.690000	491.000000	6230.000000	4.376349
996.690000	490.000000	6190.000000	4.376097
997.690000	489.000000	6046.666667	4.375845
998.690000	488.000000	5923.333333	4.375592
999.690000	487.000000	6160.000000	4.375340
1000.690000	486.000000	6243.333333	4.375088
1001.690000	485.000000	5843.333333	4.374836
1002.690000	484.000000	5930.000000	4.374584
1003.690000	483.000000	5866.666667	4.374332
1004.690000	482.000000	6280.000000	4.374080
1005.690000	481.000000	6306.666667	4.373828
1006.690000	480.000000	6356.666667	4.373576
1007.690000	479.000000	6286.666667	4.373324
1008.690000	478.000000	6230.000000	4.373072
1009.690000	477.000000	6006.666667	4.372820
1010.690000	476.000000	6450.000000	4.373124
1011.690000	475.000000	6176.666667	4.373585
1012.690000	474.000000	5996.666667	4.374046
1013.690000	473.000000	6190.000000	4.374508
1014.690000	472.000000	6093.333333	4.374969
1015.690000	471.000000	6423.333333	4.375430
1016.690000	470.000000	6290.000000	4.375891
1017.690000	469.000000	6283.333333	4.376352
1018.690000	468.000000	6326.666667	4.376813
1019.690000	467.000000	6163.333333	4.377274
1020.690000	466.000000	6136.666667	4.377736
1021.690000	465.000000	6153.333333	4.378197
1022.690000	464.000000	6133.333333	4.378658
1023.690000	463.000000	6073.333333	4.379119
1024.690000	462.000000	6406.666667	4.379580
1025.690000	461.000000	6503.333333	4.380041
1026.690000	460.000000	6696.666667	4.380502
1027.690000	459.000000	6400.000000	4.380964
1028.690000	458.000000	6466.666667	4.381425
1029.690000	457.000000	6373.333333	4.381886
1030.690000	456.000000	6253.333333	4.382347
1031.690000	455.000000	6633.333333	4.382808
1032.690000	454.000000	6333.333333	4.383269
1033.690000	453.000000	6346.666667	4.383730
1034.690000	452.000000	6610.000000	4.384191
1035.690000	451.000000	6466.666667	4.384653
1036.690000	450.000000	6253.333333	4.385114
1037.690000	449.000000	6480.000000	4.385575
1038.690000	448.000000	6443.333333	4.386036
1039.690000	447.000000	6366.666667	4.386497
1040.690000	446.000000	6433.333333	4.386958
1041.690000	445.000000	6440.000000	4.387419
1042.690000	444.000000	6283.333333	4.387881
1043.690000	443.000000	6643.333333	4.388342
1044.690000	442.000000	6410.000000	4.388803
1045.690000	441.000000	6373.333333	4.389264
1046.690000	440.000000	6460.000000	4.389725
1047.690000	439.000000	6483.333333	4.390186
1048.690000	438.000000	6546.666667	4.390647
1049.690000	437.000000	6463.333333	4.391109
1050.690000	436.000000	6560.000000	4.391570
1051.690000	435.000000	6460.000000	4.392031
1052.690000	434.000000	6653.333333	4.392492
1053.690000	433.000000	6653.333333	4.392953
1054.690000	432.000000	6593.333333	4.393414
1055.690000	431.000000	6583.333333	4.393875
1056.690000	430.000000	6640.000000	4.394337
1057.690000	429.000000	6690.000000	4.394798
1058.690000	428.000000	6640.000000	4.395259
1059.690000	427.000000	6740.000000	4.395720
1060.690000	426.000000	6596.666667	4.397151
1061.690000	425.000000	6646.666667	4.398856
1062.690000	424.000000	6603.333333	4.400561
1063.690000	423.000000	6466.666667	4.402266
1064.690000	422.000000	6580.000000	4.403971
1065.690000	421.000000	6536.666667	4.405676
1066.690000	420.000000	6433.333333	4.407381
1067.690000	419.000000	6423.333333	4.409086
1068.690000	418.000000	6523.333333	4.410791
1069.690000	417.000000	6403.333333	4.412496
1070.690000	416.000000	6426.666667	4.414202
1071.690000	415.000000	6503.333333	4.415907
1072.690000	414.000000	6503.333333	4.417612
1073.690000	413.000000	6643.333333	4.419317
1074.690000	412.000000	6653.333333	4.421022
1075.690000	411.000000	6636.666667	4.422727
1076.690000	410.000000	6440.000000	4.424432
1077.690000	409.000000	6576.666667	4.426137
1078.690000	408.000000	6756.666667	4.427842
1079.690000	407.000000	6540.000000	4.429547
1080.690000	406.000000	6463.333333	4.431252
1081.690000	405.000000	6650.000000	4.432957
1082.690000	404.000000	6650.000000	4.434662
1083.690000	403.000000	6946.666667	4.436367
1084.690000	402.000000	7160.000000	4.438072
1085.690000	401.000000	7410.000000	4.439777
1086.690000	400.000000	7066.666667	4.441482
1087.690000	399.000000	6953.333333	4.443187
1088.690000	398.000000	6696.666667	4.444892
1089.690000	397.000000	6610.000000	4.446597
1090.690000	396.000000	6533.333333	4.448302
1091.690000	395.000000	6733.333333	4.450007
1092.690000	394.000000	6716.666667	4.451712
1093.690000	393.000000	6820.000000	4.453417
1094.690000	392.000000	6816.666667	4.455122
1095.690000	391.000000	6713.333333	4.456827
1096.690000	390.000000	6663.333333	4.458532
1097.690000	389.000000	6790.000000	4.460237
1098.690000	388.000000	6870.000000	4.461942
1099.690000	387.000000	6806.666667	4.463647
1100.690000	386.000000	6693.333333	4.464397
1101.690000	385.000000	6676.666667	4.464877
1102.690000	384.000000	6913.333333	4.465357
1103.690000	383.000000	6973.333333	4.465837
1104.690000	382.000000	6726.666667	4.466317
1105.690000	381.000000	6803.333333	4.466798
1106.690000	380.000000	6930.000000	4.467278
1107.690000	379.000000	6776.666667	4.467758
1108.690000	378.000000	6676.666667	4.468238
1109.690000	377.000000	6733.333333	4.468719
1110.690000	376.000000	6726.666667	4.469199
1111.690000	375.000000	6740.000000	4.469679
1112.690000	374.000000	6890.000000	4.470159
1113.690000	373.000000	7033.333333	4.470640
1114.690000	372.000000	7043.333333	4.471120
1115.690000	371.000000	7013.333333	4.471600
1116.690000	370.000000	6886.666667	4.472080
1117.690000	369.000000	7016.666667	4.472560
1118.690000	368.000000	7060.000000	4.473041
1119.690000	367.000000	6970.000000	4.473521
1120.690000	366.000000	6943.333333	4.474001
1121.690000	365.000000	7016.666667	4.474481
1122.690000	364.000000	7026.666667	4.474962
1123.690000	363.000000	6976.666667	4.475442
1124.690000	362.000000	7083.333333	4.475922
1125.690000	361.000000	6990.000000	4.476402
1126.690000	360.000000	7206.666667	4.476882
1127.690000	359.000000	6933.333333	4.477363
1128.690000	358.000000	7006.666667	4.477843
1129.690000	357.000000	7153.333333	4.478323
1130.690000	356.000000	7313.333333	4.478803
1131.690000	355.000000	7046.666667	4.479284
1132.690000	354.000000	7176.666667	4.479764
1133.690000	353.000000	7436.666667	4.480244
1134.690000	352.000000	7160.000000	4.480724
1135.690000	351.000000	7453.333333	4.481204
1136.690000	350.000000	7453.333333	4.481685
1137.690000	349.000000	7366.666667	4.482165
1138.690000	348.000000	7386.666667	4.482645
1139.690000	347.000000	7380.000000	4.483125
1140.690000	346.000000	7403.333333	4.483606
1141.690000	345.000000	7383.333333	4.484086
1142.690000	344.000000	7460.000000	4.484566
1143.690000	343.000000	7240.000000	4.485046
1144.690000	342.000000	7283.333333	4.485526
1145.690000	341.000000	7363.333333	4.486007
1146.690000	340.000000	7483.333333	4.486487
1147.690000	339.000000	7363.333333	4.486967
1148.690000	338.000000	7310.000000	4.487447
1149.690000	337.000000	7450.000000	4.487928
1150.690000	336.000000	7436.666667	4.488408
1151.690000	335.000000	7443.333333	4.488888
1152.690000	334.000000	7193.333333	4.489368
1153.690000	333.000000	7080.000000	4.489849
1154.690000	332.000000	7406.666667	4.490329
1155.690000	331.000000	7093.333333	4.490809
1156.690000	330.000000	7196.666667	4.491289
1157.690000	329.000000	7073.333333	4.491769
1158.690000	328.000000	7050.000000	4.492250
1159.690000	327.000000	7413.333333	4.492730
1160.690000	326.000000	7573.333333	4.493210
1161.690000	325.000000	7493.333333	4.493690
1162.690000	324.000000	7670.000000	4.494171
1163.690000	323.000000	7633.333333	4.494651
1164.690000	322.000000	7553.333333	4.495131
1165.690000	321.000000	7573.333333	4.495611
1166.690000	320.000000	7880.000000	4.496091
1167.690000	319.000000	7973.333333	4.496572
1168.690000	318.000000	8070.000000	4.497052
1169.690000	317.000000	8043.333333	4.497532
1170.690000	316.000000	8150.000000	4.498012
1171.690000	315.000000	8180.000000	4.498493
1172.690000	314.000000	8240.000000	4.498973
1173.690000	313.000000	8113.333333	4.499453
1174.690000	312.000000	8276.666667	4.499933
1175.690000	311.000000	8343.333333	4.500413
1176.690000	310.000000	8173.333333	4.500894
1177.690000	309.000000	7940.000000	4.501374
1178.690000	308.000000	7653.333333	4.501854
1179.690000	307.000000	7403.333333	4.502334
1180.690000	306.000000	7003.333333	4.502815
1181.690000	305.000000	6433.333333	4.503295
1182.690000	304.000000	6183.333333	4.503775
1183.690000	303.000000	5846.666667	4.504255
1184.690000	302.000000	5390.000000	4.504735
1185.690000	301.000000	5116.666667	4.505216
1186.690000	300.000000	4713.333333	4.505696
1187.690000	299.000000	4606.666667	4.506176
1188.690000	298.000000	4136.666667	4.506656
1189.690000	297.000000	4136.666667	4.507137
1190.690000	296.000000	4336.666667	4.509181
1191.690000	295.000000	4493.333333	4.511668
1192.690000	294.000000	4630.000000	4.514154
1193.690000	293.000000	5196.666667	4.516640
1194.690000	292.000000	5710.000000	4.519126
1195.690000	291.000000	6326.666667	4.521612
1196.690000	290.000000	6946.666667	4.524098
1197.690000	289.000000	8040.000000	4.526584
1198.690000	288.000000	9520.000000	4.529070
1199.690000	287.000000	13436.666667	4.531556
1200.690000	286.000000	22733.333333	4.534042
1201.690000	285.000000	36673.333333	4.536529
1202.690000	284.000000	30763.333333	4.539015
1203.690000	283.000000	11336.666667	4.541501
1204.690000	282.000000	2250.000000	4.543987
1205.690000	281.000000	1073.333333	4.546473
1206.690000	280.000000	680.000000	4.548959
1207.690000	279.000000	613.333333	4.551445
1208.690000	278.000000	503.333333	4.553931
1209.690000	277.000000	400.000000	4.556417
1210.690000	276.000000	400.000000	4.558904
1211.690000	275.000000	326.666667	4.561390
1212.690000	274.000000	333.333333	4.563876
1213.690000	273.000000	396.666667	4.566362
1214.690000	272.000000	393.333333	4.568848
1215.690000	271.000000	356.666667	4.571334
1216.690000	270.000000	316.666667	4.573820
1217.690000	269.000000	286.666667	4.576306
1218.690000	268.000000	313.333333	4.578792
1219.690000	267.000000	360.000000	4.581279
1220.690000	266.000000	316.666667	4.583765
1221.690000	265.000000	330.000000	4.586251
1222.690000	264.000000	330.000000	4.588737
1223.690000	263.000000	333.333333	4.591223
1224.690000	262.000000	350.000000	4.593709
1225.690000	261.000000	336.666667	4.596195
1226.690000	260.000000	290.000000	4.598681
1227.690000	259.000000	340.000000	4.601167
1228.690000	258.000000	373.333333	4.603653
1229.690000	257.000000	306.666667	4.606140
1230.690000	256.000000	350.000000	4.608626
1231.690000	255.000000	380.000000	4.611112
1232.690000	254.000000	350.000000	4.613598
1233.690000	253.000000	360.000000	4.616084
1234.690000	252.000000	343.333333	4.618570
1235.690000	251.000000	363.333333	4.621056
1236.690000	250.000000	350.000000	4.623542
1237.690000	249.000000	300.000000	4.626028
1238.690000	248.000000	326.666667	4.628515
1239.690000	247.000000	350.000000	4.631001
1240.690000	246.000000	336.666667	4.632030
1241.690000	245.000000	393.333333	4.632648
1242.690000	244.000000	333.333333	4.633267
1243.690000	243.000000	373.333333	4.633885
1244.690000	242.000000	330.000000	4.634503
1245.690000	241.000000	366.666667	4.635122
1246.690000	240.000000	283.333333	4.635740
1247.690000	239.000000	403.333333	4.636358
1248.690000	238.000000	356.666667	4.636977
1249.690000	237.000000	336.666667	4.637595
1250.690000	236.000000	326.666667	4.638213
1251.690000	235.000000	403.333333	4.638832
1252.690000	234.000000	323.333333	4.639450
1253.690000	233.000000	336.666667	4.640068
1254.690000	232.000000	340.000000	4.640687
1255.690000	231.000000	333.333333	4.641305
1256.690000	230.000000	320.000000	4.641923
1257.690000	229.000000	283.333333	4.642542
1258.690000	228.000000	320.000000	4.643160
1259.690000	227.000000	383.333333	4.643778
1260.690000	226.000000	330.000000	4.644397
1261.690000	225.000000	346.666667	4.645015
1262.690000	224.000000	330.000000	4.645633
1263.690000	223.000000	306.666667	4.646252
1264.690000	222.000000	353.333333	4.646870
1265.690000	221.000000	366.666667	4.647488
1266.690000	220.000000	363.333333	4.648107
1267.690000	219.000000	343.333333	4.648725
1268.690000	218.000000	360.000000	4.649343
1269.690000	217.000000	356.666667	4.649962
1270.690000	216.000000	320.000000	4.650580
1271.690000	215.000000	320.000000	4.651198
1272.690000	214.000000	363.333333	4.651817
1273.690000	213.000000	286.666667	4.652435
1274.690000	212.000000	366.666667	4.653053
1275.690000	211.000000	333.333333	4.653672
1276.690000	210.000000	336.666667	4.654290
1277.690000	209.000000	323.333333	4.654908
1278.690000	208.000000	376.666667	4.655527
1279.690000	207.000000	346.666667	4.656145
1280.690000	206.000000	360.000000	4.656763
1281.690000	205.000000	330.000000	4.657382
1282.690000	204.000000	373.333333	4.658000
1283.690000	203.000000	356.666667	4.658618
1284.690000	202.000000	346.666667	4.659237
1285.690000	201.000000	370.000000	4.659855
1286.690000	200.000000	403.333333	4.660473
1287.690000	199.000000	326.666667	4.661092
1288.690000	198.000000	353.333333	4.661710
1289.690000	197.000000	370.000000	4.662329
1290.690000	196.000000	413.333333	4.662947
1291.690000	195.000000	403.333333	4.663565
1292.690000	194.000000	346.666667	4.664184
1293.690000	193.000000	363.333333	4.664802
1294.690000	192.000000	406.666667	4.665420
1295.690000	191.000000	353.333333	4.666039
1296.690000	190.000000	396.666667	4.666657
1297.690000	189.000000	403.333333	4.667275
1298.690000	188.000000	326.666667	4.667894
1299.690000	187.000000	306.666667	4.668512
1300.690000	186.000000	360.000000	4.668850
1301.690000	185.000000	360.000000	4.669109
1302.690000	184.000000	396.666667	4.669369
1303.690000	183.000000	323.333333	4.669628
1304.690000	182.000000	310.000000	4.669887
1305.690000	181.000000	386.666667	4.670146
1306.690000	180.000000	396.666667	4.670406
1307.690000	179.000000	330.000000	4.670665
1308.690000	178.000000	360.000000	4.670924
1309.690000	177.000000	353.333333	4.671183
1310.690000	176.000000	346.666667	4.671443
1311.690000	175.000000	346.666667	4.671702
1312.690000	174.000000	366.666667	4.671961
1313.690000	173.000000	360.000000	4.672220
1314.690000	172.000000	376.666667	4.672480
1315.690000	171.000000	426.666667	4.672739
1316.690000	170.000000	330.000000	4.672998
1317.690000	169.000000	366.666667	4.673257
1318.690000	168.000000	370.000000	4.673517
1319.690000	167.000000	363.333333	4.673776
1320.690000	166.000000	263.333333	4.674035
1321.690000	165.000000	376.666667	4.674294
1322.690000	164.000000	353.333333	4.674553
1323.690000	163.000000	376.666667	4.674813
1324.690000	162.000000	390.000000	4.675072
1325.690000	161.000000	350.000000	4.675331
1326.690000	160.000000	363.333333	4.675590
1327.690000	159.000000	313.333333	4.675850
1328.690000	158.000000	306.666667	4.676109
1329.690000	157.000000	360.000000	4.676368
1330.690000	156.000000	373.333333	4.676627
1331.690000	155.000000	406.666667	4.676887
1332.690000	154.000000	343.333333	4.677146
1333.690000	153.000000	380.000000	4.677405
1334.690000	152.000000	493.333333	4.677664
1335.690000	151.000000	366.666667	4.677924
1336.690000	150.000000	343.333333	4.678183
1337.690000	149.000000	316.666667	4.678442
1338.690000	148.000000	330.000000	4.678701
1339.690000	147.000000	320.000000	4.678961
1340.690000	146.000000	310.000000	4.679220
1341.690000	145.000000	316.666667	4.679479
1342.690000	144.000000	353.333333	4.679738
1343.690000	143.000000	326.666667	4.679998
1344.690000	142.000000	350.000000	4.680257
1345.690000	141.000000	333.333333	4.680516
1346.690000	140.000000	390.000000	4.680775
1347.690000	139.000000	430.000000	4.681035
1348.690000	138.000000	356.666667	4.681294
1349.690000	137.000000	323.333333	4.681553
1350.690000	136.000000	350.000000	4.681812
1351.690000	135.000000	370.000000	4.682072
1352.690000	134.000000	373.333333	4.682331
1353.690000	133.000000	393.333333	4.682590
1354.690000	132.000000	383.333333	4.682849
1355.690000	131.000000	396.666667	4.683109
1356.690000	130.000000	396.666667	4.686369
1357.690000	129.000000	360.000000	4.690477
1358.690000	128.000000	370.000000	4.694585
1359.690000	127.000000	376.666667	4.698692
1360.690000	126.000000	360.000000	4.702800
1361.690000	125.000000	373.333333	4.706907
1362.690000	124.000000	356.666667	4.711015
1363.690000	123.000000	380.000000	4.715122
1364.690000	122.000000	380.000000	4.719230
1365.690000	121.000000	376.666667	4.723337
1366.690000	120.000000	386.666667	4.727445
1367.690000	119.000000	326.666667	4.731552
1368.690000	118.000000	370.000000	4.735660
1369.690000	117.000000	420.000000	4.739767
1370.690000	116.000000	373.333333	4.743875
1371.690000	115.000000	370.000000	4.747983
1372.690000	114.000000	373.333333	4.752090
1373.690000	113.000000	340.000000	4.756198
1374.690000	112.000000	340.000000	4.760305
1375.690000	111.000000	366.666667	4.764413
1376.690000	110.000000	376.666667	4.768520
1377.690000	109.000000	373.333333	4.772628
1378.690000	108.000000	373.333333	4.776735
1379.690000	107.000000	390.000000	4.780843
1380.690000	106.000000	333.333333	4.784950
1381.690000	105.000000	350.000000	4.789058
1382.690000	104.000000	380.000000	4.793166
1383.690000	103.000000	436.666667	4.797273
1384.690000	102.000000	450.000000	4.801381
1385.690000	101.000000	470.000000	4.805488
1386.690000	100.000000	380.000000	4.809596
1387.690000	99.000000	373.333333	4.813703
1388.690000	98.000000	433.333333	4.817811
1389.690000	97.000000	373.333333	4.821918
1390.690000	96.000000	383.333333	4.826026
1391.690000	95.000000	386.666667	4.830133
1392.690000	94.000000	396.666667	4.834241
1393.690000	93.000000	400.000000	4.838348
1394.690000	92.000000	363.333333	4.842456
1395.690000	91.000000	350.000000	4.846564
1396.690000	90.000000	356.666667	4.850671
1397.690000	89.000000	343.333333	4.854779
1398.690000	88.000000	343.333333	4.858886
1399.690000	87.000000	396.666667	4.862994
1400.690000	86.000000	426.666667	4.867101
1401.690000	85.000000	343.333333	4.871209
1402.690000	84.000000	446.666667	4.875316
1403.690000	83.000000	376.666667	4.879424
1404.690000	82.000000	390.000000	4.883531
1405.690000	81.000000	416.666667	4.887639
1406.690000	80.000000	373.333333	4.891747
1407.690000	79.000000	323.333333	4.895854
1408.690000	78.000000	346.666667	4.899962
1409.690000	77.000000	380.000000	4.904069
1410.690000	76.000000	350.000000	4.908177
1411.690000	75.000000	390.000000	4.912284
1412.690000	74.000000	346.666667	4.916392
1413.690000	73.000000	310.000000	4.920499
1414.690000	72.000000	330.000000	4.924607
1415.690000	71.000000	353.333333	4.928714
1416.690000	70.000000	366.666667	4.932822
1417.690000	69.000000	360.000000	4.936929
1418.690000	68.000000	356.666667	4.941037
1419.690000	67.000000	370.000000	4.945145
1420.690000	66.000000	380.000000	4.949252
1421.690000	65.000000	363.333333	4.953360
1422.690000	64.000000	473.333333	4.957467
1423.690000	63.000000	480.000000	4.961575
1424.690000	62.000000	363.333333	4.965682
1425.690000	61.000000	350.000000	4.969790
1426.690000	60.000000	436.666667	4.973897
1427.690000	59.000000	403.333333	4.978005
1428.690000	58.000000	386.666667	4.982112
1429.690000	57.000000	370.000000	4.986220
1430.690000	56.000000	380.000000	4.990328
1431.690000	55.000000	353.333333	4.994435
1432.690000	54.000000	390.000000	4.998543
1433.690000	53.000000	386.666667	5.002650
1434.690000	52.000000	410.000000	5.006758
1435.690000	51.000000	416.666667	5.010865
1436.690000	50.000000	360.000000	5.014973
1437.690000	49.000000	393.333333	5.019080
1438.690000	48.000000	400.000000	5.023188
1439.690000	47.000000	410.000000	5.027295
1440.690000	46.000000	416.666667	5.031403
1441.690000	45.000000	386.666667	5.035511
1442.690000	44.000000	356.666667	5.039618
1443.690000	43.000000	450.000000	5.043726
1444.690000	42.000000	346.666667	5.047833
1445.690000	41.000000	413.333333	5.051941
1446.690000	40.000000	366.666667	5.056048
1447.690000	39.000000	320.000000	5.060156
1448.690000	38.000000	346.666667	5.064263
1449.690000	37.000000	373.333333	5.068371
1450.690000	36.000000	383.333333	5.072478
1451.690000	35.000000	316.666667	5.076586
1452.690000	34.000000	346.666667	5.080693
1453.690000	33.000000	300.000000	5.084801
1454.690000	32.000000	330.000000	5.088909
1455.690000	31.000000	410.000000	5.093016
1456.690000	30.000000	420.000000	5.097124
1457.690000	29.000000	393.333333	5.101231
1458.690000	28.000000	330.000000	5.105339
1459.690000	27.000000	443.333333	5.109446
1460.690000	26.000000	463.333333	5.110350
1461.690000	25.000000	516.666667	5.110350
1462.690000	24.000000	446.666667	5.110350
1463.690000	23.000000	440.000000	5.110350
1464.690000	22.000000	403.333333	5.110350
1465.690000	21.000000	436.666667	5.110350
1466.690000	20.000000	583.333333	5.110350
1467.690000	19.000000	600.000000	5.110350
1468.690000	18.000000	636.666667	5.110350
1469.690000	17.000000	523.333333	5.110350
1470.690000	16.000000	480.000000	5.110350
1471.690000	15.000000	540.000000	5.110350
1472.690000	14.000000	520.000000	5.110350
1473.690000	13.000000	443.333333	5.110350
1474.690000	12.000000	400.000000	5.110350
1475.690000	11.000000	330.000000	5.110350
1476.690000	10.000000	280.000000	5.110350
1477.690000	9.000000	266.666667	5.110350
1478.690000	8.000000	256.666667	5.110350
1479.690000	7.000000	186.666667	5.110350
1480.690000	6.000000	120.000000	5.110350
1481.690000	5.000000	140.000000	5.110350
1482.690000	4.000000	86.666667	5.110350
1483.690000	3.000000	50.000000	5.110350
1484.690000	2.000000	50.000000	5.110350
1485.690000	1.000000	50.000000	5.110350
1486.690000	0.000000	46.666667	5.110350
1487.690000	-1.000000	20.000000	5.110350
1488.690000	-2.000000	16.666667	5.110350
1489.690000	-3.000000	20.000000	5.110350
1490.690000	-4.000000	23.333333	5.110350
1491.690000	-5.000000	13.333333	5.110350


